time(s),temperature (K),pressure(Bar),volume (m3),velocity (m/s)
1e-05,388.0000000226501,0.7764544883183508,0.00021113320000000003,-0.005344903983251097
2e-05,388.0000205942163,0.776454695229326,0.00021113315493610034,-0.010689807966502193
3.0000000000000004e-05,388.00005766426,0.7764550683821514,0.0002111330736456264,-0.016034711949753287
4e-05,388.00012003019833,0.7764556964214006,0.00021113293681172547,-0.021379615933004387
5e-05,388.0002083571939,0.7764565860499335,0.00021113274297398927,-0.02672451991625548
6e-05,388.0003230805889,0.7764577416550903,0.00021113249117670868,-0.03206942389950657
7.000000000000001e-05,388.000453883156,0.776459059279168,0.00021113220407407038,-0.03741432788275767
8e-05,388.0006100384904,0.7764606323658513,0.000211131861303882,-0.04275923186600877
9e-05,388.00079305683323,0.7764624761341022,0.00021113145955036356,-0.04810413584925986
0.0001,388.0010026691902,0.7764645878751041,0.0002111309994045452,-0.05344903983251096
0.00011,388.0012388288754,0.7764669671203024,0.0002111304809693811,-0.05879394381576205
0.00012,388.0014911154199,0.7764695088715996,0.00021112992712571746,-0.06413884779901315
0.00013000000000000002,388.0017686850283,0.7764723053915721,0.00021112931776958574,-0.06948375178226425
0.00014000000000000001,388.0020731259183,0.7764753726862875,0.0002111286494142507,-0.07482865576551534
0.00015000000000000001,388.0024041668321,0.7764787080251231,0.00021112792265597628,-0.08017355974876644
0.00016,388.00276175399904,0.7764823108692079,0.00021112713761352927,-0.08551846373201755
0.00017,388.00313552769154,0.7764860768316438,0.00021112631703419706,-0.09086336771526862
0.00018,388.0035345177123,0.7764900969038757,0.00021112544109210907,-0.09620827169851973
0.00019,388.00396038744515,0.776494387850648,0.00021112450613584093,-0.10155317568177083
0.0002,388.00441286374286,0.776498946923375,0.00021112351276603993,-0.10689807966502192
0.00021,388.00489188912326,0.7765037735468622,0.0002111224611098756,-0.11224298364827301
0.00022,388.0053974918681,0.7765088680104342,0.00021112135110624736,-0.1175878876315241
0.00023,388.00591891761877,0.7765141219485274,0.00021112020636847623,-0.12293279161477519
0.00024,388.0064659860482,0.7765196343157899,0.00021111900533732976,-0.1282776955980263
0.00025,388.0070398892207,0.7765254171294513,0.00021111774539663472,-0.1336225995812774
0.00026000000000000003,388.0076403707568,0.7765314678110914,0.00021111642711052462,-0.1389675035645285
0.00027000000000000006,388.00826742222563,0.7765377862811282,0.00021111505049877587,-0.1443124075477796
0.0002800000000000001,388.0089103493509,0.7765442647770819,0.00021111363904216198,-0.1496573115310307
0.0002900000000000001,388.00957886348846,0.7765510011660022,0.00021111217142026541,-0.15500221551428184
0.00030000000000000014,388.0102742225741,0.776558008130418,0.00021111064487263387,-0.16034711949753297
0.00031000000000000016,388.0109961673957,0.7765652830644493,0.00021110905996983372,-0.16569202348078405
0.0003200000000000002,388.0117446809025,0.7765728258025466,0.0002111074167508726,-0.17103692746403515
0.0003300000000000002,388.01250912508965,0.7765805291462703,0.0002111057385721695,-0.1763818314472863
0.00034000000000000024,388.0132990992688,0.776588489838157,0.0002111040043604251,-0.18172673543053738
0.00035000000000000027,388.0141159290779,0.7765967212446119,0.00021110221120692195,-0.1870716394137885
0.0003600000000000003,388.0149593526351,0.7766052207337719,0.00021110035968833712,-0.19241654339703962
0.0003700000000000003,388.0158293445888,0.7766139880576879,0.0002110984498621092,-0.1977614473802907
0.00038000000000000035,388.0167153240383,0.7766229165893582,0.00021109650495840175,-0.2031063513635418
0.00039000000000000037,388.0176267752692,0.7766321019173646,0.00021109450415769774,-0.20845125534679293
0.0004000000000000004,388.01856509328235,0.7766415581089647,0.00021109244439937902,-0.213796159330044
0.0004100000000000004,388.01953001366945,0.7766512825077326,0.00021109032626591564,-0.21914106331329514
0.00042000000000000045,388.02052150316104,0.7766612747869706,0.00021108814983238845,-0.22448596729654627
0.0004300000000000005,388.02152903876083,0.7766714288985933,0.0002110859382007721,-0.22983087127979734
0.0004400000000000005,388.0225619867399,0.7766818392478322,0.00021108367081196504,-0.23517577526304845
0.00045000000000000053,388.0236218131299,0.776692520619555,0.00021108134444988518,-0.2405206792462996
0.00046000000000000056,388.02470825113784,0.7767034703342892,0.00021107895970245025,-0.2458655832295507
0.0004700000000000006,388.0258212599211,0.7767146879900959,0.0002110765166616129,-0.2512104872128018
0.0004800000000000006,388.02695037520556,0.7767260681254583,0.00021107403829919398,-0.2565553911960529
0.0004900000000000006,388.0281048423212,0.7767377039330516,0.00021107150432310865,-0.261900295179304
0.0005000000000000007,388.0292861999241,0.7767496109317248,0.00021106891135832026,-0.2672451991625551
0.0005100000000000007,388.03049417900917,0.776761786420639,0.00021106625999782184,-0.2725901031458063
0.0005200000000000007,388.03172873150265,0.7767742299260482,0.00021106355034968514,-0.2779350071290574
0.0005300000000000007,388.0329794526916,0.7767868365808407,0.00021106080525358061,-0.2832799111123085
0.0005400000000000008,388.03425546402525,0.7767996983359614,0.00021105800469101014,-0.2886248150955596
0.0005500000000000008,388.03555837835745,0.7768128314603404,0.00021105514512456428,-0.2939697190788107
0.0005600000000000008,388.0368879246515,0.7768262332335683,0.0002110522271519114,-0.2993146230620618
0.0005700000000000008,388.0382440479419,0.7768399031134511,0.000211049250896508,-0.3046595270453129
0.0005800000000000009,388.0396164039293,0.7768537368352901,0.00021104623906384546,-0.310004431028564
0.0005900000000000009,388.0410139872468,0.7768678250791932,0.0002110431719155512,-0.3153493350118151
0.0006000000000000009,388.0424384865088,0.7768821848800158,0.0002110400457484972,-0.3206942389950662
0.000610000000000001,388.0438896288274,0.7768968134996747,0.00021103686116459984,-0.3260391429783173
0.000620000000000001,388.04536735711974,0.7769117103756505,0.0002110336182922189,-0.3313840469615684
0.000630000000000001,388.04687169816987,0.7769268757912378,0.00021103031707568303,-0.3367289509448196
0.000640000000000001,388.04839191023825,0.776942201465983,0.00021102698109058966,-0.34207385492807063
0.0006500000000000011,388.04993778513466,0.7769577861265646,0.00021102358885149357,-0.34741875891132173
0.0006600000000000011,388.0515105367002,0.776973642024515,0.00021102013769782875,-0.35276366289457284
0.0006700000000000011,388.053109908473,0.776989766588295,0.00021101662819574094,-0.358108566877824
0.0006800000000000011,388.0547358902302,0.7770061597291227,0.0002110130603710549,-0.3634534708610751
0.0006900000000000012,388.0563777999897,0.7770227137605762,0.0002110094576662129,-0.36879837484432626
0.0007000000000000012,388.05804532079765,0.7770395263223941,0.00021100579883665576,-0.3741432788275773
0.0007100000000000012,388.0597397330169,0.7770566103389092,0.00021100208107638233,-0.3794881828108284
0.0007200000000000012,388.06146077738873,0.7770739632112328,0.00021099830495788477,-0.3848330867940795
0.0007300000000000013,388.0632084351504,0.7770915847656125,0.00021099447052596725,-0.3901779907773306
0.0007400000000000013,388.0649720802862,0.7771093678706626,0.00021099060109813157,-0.3955228947605818
0.0007500000000000013,388.0667612833567,0.777127409042018,0.00021098667567900515,-0.40086779874383294
0.0007600000000000013,388.06857739306076,0.77714572189544,0.00021098269131318757,-0.406212702727084
0.0007700000000000014,388.070420147493,0.7771643038061714,0.00021097864857918598,-0.4115576067103351
0.0007800000000000014,388.07228951970825,0.777183154519102,0.0002109745475399893,-0.4169025106935862
0.0007900000000000014,388.074174940456,0.7772021674653767,0.0002109704113862481,-0.4222474146768373
0.0008000000000000014,388.0760858648304,0.7772214380068476,0.00021096621937843088,-0.42759231866008846
0.0008100000000000015,388.0780237115383,0.7772409804677914,0.00021096196840812462,-0.43293722264333956
0.0008200000000000015,388.07998821616707,0.7772607921990222,0.00021095765905952539,-0.4382821266265906
0.0008300000000000015,388.08197934396514,0.7772808728676788,0.00021095329141302367,-0.44362703060984177
0.0008400000000000016,388.08398658324774,0.7773011164750787,0.00021094888853047584,-0.44897193459309287
0.0008500000000000016,388.0860192706726,0.7773216171996895,0.0002109444299348146,-0.45431683857634403
0.0008600000000000016,388.0880788966048,0.777342390091116,0.00021093991236107348,-0.45966174255959513
0.0008700000000000016,388.09016519425893,0.7773634324772738,0.00021093533639878403,-0.46500664654284624
0.0008800000000000017,388.09227812144076,0.7773847439510666,0.00021093070214497315,-0.4703515505260973
0.0008900000000000017,388.09440722487045,0.7774062190918479,0.00021092603253072825,-0.47569645450934833
0.0009000000000000017,388.0965617198,0.7774279508651533,0.0002109213073480379,-0.48104135849259944
0.0009100000000000017,388.0987431698439,0.7774499550623775,0.00021091652317191411,-0.4863862624758507
0.0009200000000000018,388.1009513060705,0.7774722289903586,0.00021091168059684273,-0.49173116645910175
0.0009300000000000018,388.1031860791272,0.7774947721710496,0.00021090677973574037,-0.49707607044235297
0.0009400000000000018,388.10543709500905,0.7775174797699133,0.00021090184338691864,-0.502420974425604
0.0009500000000000018,388.10771344462165,0.7775404435101119,0.00021089685161798243,-0.5077658784088551
0.0009600000000000019,388.11001676638864,0.7775636799410025,0.00021089180084052649,-0.5131107823921062
0.0009700000000000019,388.11234678940184,0.7775871863501508,0.00021088669165358252,-0.5184556863753573
0.000980000000000002,388.11470345858015,0.7776109622027456,0.000210881524182877,-0.5238005903586084
0.000990000000000002,388.11708680715117,0.7776350078552546,0.00021087629836051536,-0.5291454943418596
0.001000000000000002,388.1194860468089,0.7776592144795452,0.00021087103784587206,-0.5344903983251106
0.001010000000000002,388.1219110529123,0.7776836817292281,0.00021086572099004454,-0.5398353023083617
0.001020000000000002,388.1243629963193,0.7777084214397784,0.00021086034523084342,-0.5451802062916128
0.001030000000000002,388.12684162326514,0.7777334310727142,0.00021085491112989835,-0.550525110274864
0.001040000000000002,388.1293469305471,0.7777587106180789,0.00021084941869945457,-0.5558700142581151
0.001050000000000002,388.13186818849596,0.7777841518254768,0.00021084389146708166,-0.561214918241366
0.0010600000000000021,388.1344151662573,0.7778098532912731,0.0002108383080201453,-0.5665598222246173
0.0010700000000000022,388.1369891001338,0.7778358275141275,0.0002108326656536051,-0.5719047262078684
0.0010800000000000022,388.13958973346405,0.7778620719270598,0.00021082696493562603,-0.5772496301911195
0.0010900000000000022,388.1422170542544,0.7778885864324515,0.00021082120589799625,-0.5825945341743705
0.0011000000000000022,388.1448603876576,0.7779152633188194,0.00021081541194464546,-0.5879394381576217
0.0011100000000000023,388.1475293928774,0.7779422000878453,0.00021080956190751507,-0.5932843421408728
0.0011200000000000023,388.1502253735246,0.7779694099204234,0.00021080365293470125,-0.5986292461241239
0.0011300000000000023,388.15294807016653,0.7779968902224286,0.0002107976856005932,-0.6039741501073751
0.0011400000000000023,388.1556974624011,0.778024640812281,0.00021079165995571472,-0.6093190540906261
0.0011500000000000024,388.1584629309996,0.7780525545249211,0.0002107855992784669,-0.6146639580738772
0.0011600000000000024,388.1612540222053,0.7780807277372845,0.0002107794826520429,-0.6200088620571284
0.0011700000000000024,388.1640721086404,0.7781091743299758,0.00021077330707401214,-0.6253537660403794
0.0011800000000000024,388.16691692825657,0.7781378916831296,0.00021076707312468084,-0.6306986700236306
0.0011900000000000025,388.16978845255994,0.778166879534729,0.0002107607808725128,-0.6360435740068816
0.0012000000000000025,388.172676118796,0.7781960312739157,0.00021075445346845938,-0.6413884779901329
0.0012100000000000025,388.17558935724225,0.7782254421228868,0.00021074807025361035,-0.6467333819733838
0.0012200000000000025,388.17852961119274,0.7782551266791263,0.00021074162807141762,-0.6520782859566351
0.0012300000000000026,388.1814966161336,0.7782850822985184,0.00021073512750776976,-0.657423189939886
0.0012400000000000026,388.1844903358558,0.7783153086421891,0.00021072856864829317,-0.6627680939231373
0.0012500000000000026,388.1875002649046,0.7783456996613451,0.0002107219745145363,-0.6681129979063883
0.0012600000000000027,388.1905357145777,0.778376349393482,0.00021071532471209908,-0.6734579018896395
0.0012700000000000027,388.1935982005087,0.7784072731699166,0.00021070861592679773,-0.6788028058728907
0.0012800000000000027,388.19668745586836,0.7784384683238794,0.00021070184874974097,-0.6841477098561416
0.0012900000000000027,388.19980343707044,0.7784699344430741,0.00021069502328295838,-0.6894926138393929
0.0013000000000000028,388.2029356968029,0.7785015660488155,0.00021068816241661092,-0.6948375178226439
0.0013100000000000028,388.20609342442947,0.7785334559640985,0.0002106812460273907,-0.700182421805895
0.0013200000000000028,388.2092782095186,0.778565620270659,0.00021067427064003243,-0.7055273257891461
0.0013300000000000028,388.2124897831058,0.77859805628083,0.0002106672368504754,-0.7108722297723972
0.0013400000000000029,388.21572809456376,0.7786307635122576,0.00021066014477641115,-0.7162171337556482
0.0013500000000000029,388.21898275558686,0.7786636370645995,0.00021065301717459675,-0.7215620377388995
0.001360000000000003,388.22226283063816,0.7786967685165657,0.00021064583419936692,-0.7269069417221505
0.001370000000000003,388.22556998479587,0.7787301747166324,0.00021063859221100167,-0.7322518457054017
0.001380000000000003,388.2289039471478,0.7787638529581081,0.00021063129180985403,-0.7375967496886527
0.001390000000000003,388.2322646629749,0.7787978027183088,0.00021062393312282476,-0.7429416536719039
0.001400000000000003,388.23565216398816,0.7788320243480472,0.00021061651608756635,-0.748286557655155
0.001410000000000003,388.23905566441863,0.7788664089090979,0.0002106090643259469,-0.7536314616384061
0.001420000000000003,388.2424850212348,0.7789010560086306,0.00021060155626205753,-0.7589763656216573
0.001430000000000003,388.24594142803784,0.7789359777366957,0.00021059398928976179,-0.7643212696049083
0.0014400000000000031,388.24942463073694,0.7789711715573462,0.00021058636397273245,-0.7696661735881594
0.0014500000000000032,388.2529346242955,0.7790066374512539,0.00021057868032936042,-0.7750110775714105
0.0014600000000000032,388.2564606812667,0.7790422670497267,0.00021057096184910417,-0.7803559815546616
0.0014700000000000032,388.2600125519392,0.7790781589016814,0.0002105631871943987,-0.7857008855379128
0.0014800000000000032,388.2635914960334,0.7791143257690694,0.00021055535361509193,-0.7910457895211638
0.0014900000000000033,388.26719725658705,0.7791507650874959,0.0002105474616813088,-0.796390693504415
0.0015000000000000033,388.2708298198805,0.7791874767509155,0.00021053951143072908,-0.801735597487666
0.0015100000000000033,388.2744785130044,0.7792243529213415,0.0002105315262285893,-0.8070805014709173
0.0015200000000000033,388.27815297574426,0.7792614910514959,0.00021052348498397215,-0.8124254054541684
0.0015300000000000034,388.2818545358476,0.7792989045944877,0.00021051538479871938,-0.8177703094374194
0.0015400000000000034,388.285582933617,0.7793365909588834,0.00021050722624908782,-0.8231152134206706
0.0015500000000000034,388.28933814699576,0.779374549955522,0.00021049900939124443,-0.8284601174039216
0.0015600000000000034,388.29310955844613,0.7794126742848755,0.00021049075746430517,-0.8338050213871727
0.0015700000000000035,388.2969066942365,0.7794510602731358,0.00021048244963066694,-0.8391499253704239
0.0015800000000000035,388.30073095183053,0.7794897220821372,0.0002104740828405243,-0.8444948293536749
0.0015900000000000035,388.30458206893917,0.7795286570948162,0.00021046565767595036,-0.8498397333369262
0.0016000000000000035,388.3084600155224,0.7795678650424682,0.00021045717421080924,-0.8551846373201771
0.0016100000000000036,388.3123542302379,0.7796072391719117,0.00021044865555616528,-0.8605295413034284
0.0016200000000000036,388.31627412282853,0.7796468746525193,0.00021044008113436471,-0.8658744452866793
0.0016300000000000036,388.32022116214813,0.7796867863721658,0.00021043144774038675,-0.8712193492699306
0.0016400000000000037,388.3241950834621,0.7797269716896748,0.00021042275596177735,-0.8765642532531817
0.0016500000000000037,388.3281958491186,0.7797674302603423,0.0002104140058893261,-0.8819091572364327
0.0016600000000000037,388.3322129547954,0.7798080558853681,0.00021040522050408294,-0.8872540612196839
0.0016700000000000037,388.3362556907118,0.779848942547074,0.00021039637949494711,-0.8925989652029349
0.0016800000000000038,388.3403255987642,0.7798901058764288,0.00021038747949818655,-0.8979438691861861
0.0016900000000000038,388.3444224119145,0.7799315432097516,0.0002103785211064497,-0.903288773169437
0.0017000000000000038,388.3485460852568,0.7799732541297916,0.00021036950442669767,-0.9086336771526883
0.0017100000000000038,388.35268617235465,0.7800151330003963,0.00021036045230797155,-0.9139785811359393
0.0017200000000000039,388.35685184090363,0.7800572725866363,0.00021035134471229577,-0.9193234851191905
0.0017300000000000039,388.3610447074366,0.7800996892792869,0.0002103421781138038,-0.9246683891024415
0.001740000000000004,388.36526450284765,0.7801423803940675,0.00021033295310984846,-0.9300132930856928
0.001750000000000004,388.3695111752545,0.780185345444402,0.0002103236698228267,-0.9353581970689439
0.001760000000000004,388.3737743370021,0.7802284793652672,0.00021031435096774452,-0.940703101052195
0.001770000000000004,388.3780630302915,0.7802718736743686,0.00021030497678629234,-0.9460480050354461
0.001780000000000004,388.38237894785505,0.7803155455387228,0.0002102955435871184,-0.9513929090186972
0.001790000000000004,388.38672181869606,0.7803594922553359,0.0002102860519718545,-0.9567378130019483
0.001800000000000004,388.39109158843735,0.7804037133134155,0.0002102765020685888,-0.9620827169851993
0.001810000000000004,388.3954882873408,0.7804482090591098,0.00021026689382042463,-0.9674276209684504
0.0018200000000000041,388.3999011269151,0.7804928703410332,0.00021025725081154698,-0.9727725249517015
0.0018300000000000041,388.4043399503163,0.7805377968114554,0.00021024755153968734,-0.9781174289349528
0.0018400000000000042,388.4088059746799,0.7805830008299516,0.00021023779335439875,-0.983462332918204
0.0018500000000000042,388.4132989455034,0.7806284798611285,0.0002102279768213719,-0.9888072369014548
0.0018600000000000042,388.41781885594753,0.7806742338768093,0.00021021810196506424,-0.9941521408847059
0.0018700000000000043,388.4223549756117,0.7807201542875473,0.00021020819223664368,-0.9994970448679572
0.0018800000000000043,388.42691704035917,0.7807663396851506,0.00021019822637425756,-1.0048419488512084
0.0018900000000000043,388.43150633421607,0.7808128031106693,0.00021018820158228584,-1.0101868528344595
0.0019000000000000043,388.43612259982285,0.7808595420002845,0.00021017811843278557,-1.0155317568177105
0.0019100000000000044,388.44076582175194,0.7809065562399566,0.0002101679769692506,-1.0208766608009616
0.0019200000000000044,388.4454253238605,0.7809537377631479,0.0002101578005180418,-1.0262215647842128
0.0019300000000000044,388.45011073095213,0.7810011840630294,0.00021014756806602336,-1.0315664687674637
0.0019400000000000044,388.45482339581224,0.7810489088814401,0.0002101372766684331,-1.0369113727507149
