time(s),temperature (K),pressure(Bar),volume (m3),velocity (m/s)
1e-05,387.99999999948193,1.0132398674989562,0.00021113320000000003,-0.005344903983251097
2e-05,388.0000276717701,1.0132401248318008,0.00021113316143659506,-0.010689807966502193
3.0000000000000004e-05,388.0000888995769,1.0132406942084313,0.00021113307611084518,-0.016034711949753287
4e-05,388.00019228734413,1.0132416556466541,0.00021113293203146424,-0.021379615933004387
5e-05,388.000338196834,1.0132430125119714,0.00021113272869436147,-0.02672451991625548
6e-05,388.0005153842296,1.0132446602447913,0.00021113248176899018,-0.03206942389950657
7.000000000000001e-05,388.000734864027,1.0132467012747508,0.00021113217590589532,-0.03741432788275767
8e-05,388.00099683007994,1.0132491374063592,0.00021113181083526767,-0.04275923186600877
9e-05,388.00129007591966,1.013251864427538,0.00021113140217462757,-0.04810413584925986
0.0001,388.00162564478444,1.013254985036471,0.00021113093453473266,-0.05344903983251096
0.00011,388.00199251359805,1.013258396726628,0.00021113042327754904,-0.05879394381576205
0.00012,388.00240158413766,1.0132622008815992,0.00021112985321117253,-0.06413884779901315
0.00013000000000000002,388.0028532175432,1.0132664008630958,0.0002111292238329772,-0.06948375178226425
0.00014000000000000001,388.0033361404804,1.0132708918373197,0.00021112855085367706,-0.07482865576551534
0.00015000000000000001,388.0038613126688,1.0132757757283593,0.00021112781900096291,-0.08017355974876644
0.00016,388.0044290165092,1.0132810551666613,0.00021112702788212253,-0.08551846373201755
0.00017,388.0050280026877,1.0132866255415185,0.00021112619317434751,-0.09086336771526862
0.00018,388.005669281617,1.0132925892504092,0.00021112529953506396,-0.09620827169851973
0.00019,388.00635305665287,1.0132989481896115,0.00021112434668190807,-0.10155317568177083
0.0002,388.0070681160919,1.0133055980976926,0.00021112335023955444,-0.10689807966502192
0.00021,388.00782550378887,1.013312641685269,0.00021112229481926964,-0.11224298364827301
0.00022,388.00861419992907,1.0133199764750092,0.00021112119577821413,-0.1175878876315241
0.00023,388.0094450993679,1.0133277037933899,0.0002111200379355946,-0.12293279161477519
0.00024,388.01031857264405,1.013335827093058,0.0002111188207763881,-0.1282776955980263
0.00025,388.01122334424065,1.0133442415177214,0.00021111756001391169,-0.1336225995812774
0.00026000000000000003,388.0121703685018,1.0133530489496794,0.00021111624038498022,-0.1389675035645285
0.00027000000000000006,388.01315993729185,1.013362252110821,0.00021111486148441078,-0.1443124075477796
0.0002800000000000001,388.0141807974212,1.013371746351456,0.0002111134389941516,-0.1496573115310307
0.0002900000000000001,388.0152439555602,1.013381634043266,0.0002111119575786764,-0.15500221551428184
0.00030000000000000014,388.01634962456615,1.0133919171743995,0.0002111104169430736,-0.16034711949753297
0.00031000000000000016,388.0174865872082,1.013402491428083,0.00021110883271892802,-0.16569202348078405
0.0003200000000000002,388.0186658881776,1.013413459532718,0.0002111071895183319,-0.17103692746403515
0.0003300000000000002,388.0198765107114,1.0134247190348649,0.0002111055026933259,-0.1763818314472863
0.00034000000000000024,388.02112934301516,1.0134363712096737,0.0002111037570744605,-0.18172673543053738
0.00035000000000000027,388.0224247650396,1.013448419600961,0.00021110195213432407,-0.1870716394137885
0.0003600000000000003,388.0237514987909,1.0134607593239189,0.00021110010358859284,-0.19241654339703962
0.0003700000000000003,388.0251204935264,1.0134734922249125,0.0002110981961834412,-0.1977614473802907
0.00038000000000000035,388.0265320505588,1.0134866211173899,0.00021109622950122407,-0.2031063513635418
0.00039000000000000037,388.02797491257326,1.0135000413067827,0.00021109421922840225,-0.20845125534679293
0.0004000000000000004,388.0294600827562,1.0135138551447853,0.00021109215003673249,-0.213796159330044
0.0004100000000000004,388.03098778347766,1.0135280647115603,0.00021109002161876422,-0.21914106331329514
0.00042000000000000045,388.032546791689,1.013542565629007,0.00021108784961274815,-0.22448596729654627
0.0004300000000000005,388.03414815142145,1.0135574606325866,0.0002110856186343343,-0.22983087127979734
0.0004400000000000005,388.0357920055991,1.013572751064526,0.0002110833284869447,-0.23517577526304845
0.00045000000000000053,388.03746717905585,1.0135883329894992,0.00021108099474163072,-0.2405206792462996
0.00046000000000000056,388.03918471752746,1.013604309163121,0.00021107860201247523,-0.2458655832295507
0.0004700000000000006,388.04093358005815,1.0136205768966609,0.00021107616568317525,-0.2512104872128018
0.0004800000000000006,388.04272471664143,1.0136372380578742,0.0002110736705017953,-0.2565553911960529
0.0004900000000000006,388.0445584382183,1.0136542955534922,0.00021107111603801176,-0.261900295179304
0.0005000000000000007,388.0464234830153,1.0136716446379543,0.00021106851798254877,-0.2672451991625551
0.0005100000000000007,388.04833085107435,1.0136893876490067,0.0002110658610146816,-0.2725901031458063
0.0005200000000000007,388.0502807742657,1.013707526758925,0.00021106314481442935,-0.2779350071290574
0.0005300000000000007,388.05226202342794,1.013725957522257,0.0002110603850264643,-0.2832799111123085
0.0005400000000000008,388.05428564103846,1.0137447826764543,0.00021105756627187857,-0.2886248150955596
0.0005500000000000008,388.05635177958254,1.0137640036562363,0.00021105468834148712,-0.2939697190788107
0.0005600000000000008,388.0584492561007,1.0137835164425604,0.00021105176681491633,-0.2993146230620618
0.0005700000000000008,388.0605891197959,1.0138034238404294,0.00021104878630491403,-0.3046595270453129
0.0005800000000000009,388.06276033014956,1.0138236231535735,0.00021104576219219904,-0.310004431028564
0.0005900000000000009,388.06497383269806,1.0138442162260357,0.000211042679234593,-0.3153493350118151
0.0006000000000000009,388.06722994786355,1.013865206056573,0.0002110395369893247,-0.3206942389950662
0.000610000000000001,388.06951740914224,1.01388648784264,0.00021103635115114213,-0.3260391429783173
0.000620000000000001,388.0718472136659,1.0139081639137837,0.00021103310640707454,-0.3313840469615684
0.000630000000000001,388.0742196028546,1.0139302365346723,0.00021102980242461964,-0.3367289509448196
0.000640000000000001,388.0766233411147,1.0139526011864155,0.00021102645485462712,-0.34207385492807063
0.0006500000000000011,388.07906946967455,1.0139753606144228,0.00021102304832386663,-0.34741875891132173
0.0006600000000000011,388.0815581505805,1.013998516346015,0.00021101958261055472,-0.35276366289457284
0.0006700000000000011,388.08407819280194,1.0140219642724713,0.0002110160733026486,-0.358108566877824
0.0006800000000000011,388.08664064919867,1.014045807253489,0.0002110125050118781,-0.3634534708610751
0.0006900000000000012,388.0892344795054,1.0140699425800057,0.00021100889311566955,-0.36879837484432626
0.0007000000000000012,388.09187062507044,1.0140944720781677,0.00021100522238183452,-0.3741432788275773
0.0007100000000000012,388.094549415809,1.0141193988389996,0.00021100149235516274,-0.3794881828108284
0.0007200000000000012,388.09725958018254,1.0141446179969074,0.00021099771873418202,-0.3848330867940795
0.0007300000000000013,388.1000121127288,1.0141702318792003,0.00021099388621391115,-0.3901779907773306
0.0007400000000000013,388.1028072643761,1.014196242843004,0.00021098999444933497,-0.3955228947605818
0.0007500000000000013,388.10563379286185,1.0142225462901049,0.0002109860590972365,-0.40086779874383294
0.0007600000000000013,388.1085027384218,1.0142492449797165,0.00021098206479029836,-0.406212702727084
0.0007700000000000014,388.11141427267637,1.0142763405319237,0.00021097801129414738,-0.4115576067103351
0.0007800000000000014,388.11435719622915,1.0143037287423045,0.00021097391420482744,-0.4169025106935862
0.0007900000000000014,388.1173425658592,1.0143315125307621,0.0002109697581333673,-0.4222474146768373
0.0008000000000000014,388.12035934126953,1.0143595891699206,0.0002109655584535867,-0.42759231866008846
0.0008100000000000015,388.1234184599316,1.0143880604739566,0.0002109612999435198,-0.43293722264333956
0.0008200000000000015,388.126520261268,1.0144169296264314,0.00021095698213552592,-0.4382821266265906
0.0008300000000000015,388.12965346840565,1.0144460916926339,0.0002109526207316686,-0.44362703060984177
0.0008400000000000016,388.13282907357666,1.0144756490035354,0.00021094820043519156,-0.44897193459309287
0.0008500000000000016,388.1360473372506,1.0145056040089926,0.00021094372088857548,-0.45431683857634403
0.0008600000000000016,388.13929701015684,1.0145358520253036,0.00021093919775429254,-0.45966174255959513
0.0008700000000000016,388.14258913185944,1.014566495831505,0.0002109346156711739,-0.46500664654284624
0.0008800000000000017,388.145923883553,1.014597537140596,0.0002109299743922653,-0.4703515505260973
0.0008900000000000017,388.14929005718,1.0146288716464102,0.00021092528952145316,-0.47569645450934833
0.0009000000000000017,388.1526987136635,1.0146606023344853,0.0002109205456693818,-0.48104135849259944
0.0009100000000000017,388.1561388124587,1.0146926264537857,0.00021091575820595058,-0.4863862624758507
0.0009200000000000018,388.1596212874469,1.0147250458123855,0.00021091091191964887,-0.49173116645910175
0.0009300000000000018,388.16314648756367,1.014757863686645,0.0002109060063304143,-0.49707607044235297
0.0009400000000000018,388.16670313031005,1.0147909750666813,0.00021090105714360188,-0.502420974425604
0.0009500000000000018,388.1703022058949,1.0148244822930126,0.00021089604907091578,-0.5077658784088551
0.0009600000000000019,388.17394398434016,1.0148583879084638,0.0002108909817423413,-0.5131107823921062
0.0009700000000000019,388.1776172090758,1.014892587137788,0.00021088587082579546,-0.5184556863753573
0.000980000000000002,388.181332919288,1.0149271827858035,0.00021088070096649336,-0.5238005903586084
0.000990000000000002,388.1850913057456,1.0149621766585903,0.0002108754719049085,-0.5291454943418596
0.001000000000000002,388.1888811514341,1.0149974643421742,0.00021087019925252552,-0.5344903983251106
0.001010000000000002,388.1927135216627,1.0150331488932165,0.0002108648676199215,-0.5398353023083617
0.001020000000000002,388.19657737540257,1.0150691275316215,0.00021085949237276117,-0.5451802062916128
0.001030000000000002,388.20048364322747,1.0151055020652173,0.00021085405831022173,-0.550525110274864
0.001040000000000002,388.20443268361055,1.0151422758634983,0.000210848564939828,-0.5558700142581151
0.001050000000000002,388.20841320812104,1.0151793438353003,0.000210843027969982,-0.561214918241366
0.0010600000000000021,388.21243620523603,1.0152168083366035,0.00021083743212108388,-0.5665598222246173
0.0010700000000000022,388.2165019545421,1.0152546720034625,0.00021083177701063235,-0.5719047262078684
0.0010800000000000022,388.22059919187603,1.0152928299630022,0.00021082607831174506,-0.5772496301911195
0.0010900000000000022,388.22473895632356,1.0153313850517471,0.00021082032067625656,-0.5825945341743705
0.0011000000000000022,388.22892144825437,1.0153703391691165,0.00021081450383207684,-0.5879394381576217
0.0011100000000000023,388.233135441393,1.0154095877872193,0.0002108086433980446,-0.5932843421408728
0.0011200000000000023,388.23739200566905,1.0154492340393284,0.00021080272398498644,-0.5986292461241239
0.0011300000000000023,388.2416800993413,1.0154891751109019,0.00021079676095401846,-0.6039741501073751
0.0011400000000000023,388.2460106499584,1.0155295128153858,0.00021079073911523842,-0.6093190540906261
0.0011500000000000024,388.2503840255448,1.015570250615733,0.00021078465796376674,-0.6146639580738772
0.0011600000000000024,388.2547889314498,1.0156112833334152,0.00021077853321080866,-0.6200088620571284
0.0011700000000000024,388.25923635470014,1.0156527133457753,0.00021077234958569564,-0.6253537660403794
0.0011800000000000024,388.2637265844628,1.0156945433823863,0.0002107661066934484,-0.6306986700236306
0.0011900000000000025,388.2682483486788,1.0157366684666185,0.0002107598202121412,-0.6360435740068816
0.0012000000000000025,388.2728126866335,1.0157791914727008,0.00021075347480046345,-0.6413884779901329
0.0012100000000000025,388.27741980829717,1.0158221143935957,0.00021074707017377023,-0.6467333819733838
0.0012200000000000025,388.2820584778438,1.0158653325814049,0.00021074062195801022,-0.6520782859566351
0.0012300000000000026,388.28673977005644,1.0159089492515148,0.00021073411476457655,-0.657423189939886
0.0012400000000000026,388.29145264224894,1.015952861549533,0.0002107275639497224,-0.6627680939231373
0.0012500000000000026,388.2962080192321,1.0159971713004043,0.00021072095433469885,-0.6681129979063883
0.0012600000000000027,388.30100627860116,1.0160418820609,0.0002107142854022307,-0.6734579018896395
0.0012700000000000027,388.30583611917774,1.0160868885589804,0.00021070757286608205,-0.6788028058728907
0.0012800000000000027,388.31070852684275,1.016132293199319,0.0002107008014647512,-0.6841477098561416
0.0012900000000000027,388.31562380034444,1.016178098805275,0.00021069397079078969,-0.6894926138393929
0.0013000000000000028,388.3205706594357,1.0162242002903454,0.00021068709652698403,-0.6948375178226439
0.0013100000000000028,388.3255601438879,1.0162707005724367,0.00021068016333911416,-0.700182421805895
0.0013200000000000028,388.3305924732891,1.016317601738326,0.00021067317092998895,-0.7055273257891461
0.0013300000000000028,388.3356564019542,1.0163647990139413,0.00021066613493242272,-0.7108722297723972
0.0013400000000000029,388.3407630097797,1.016412395702378,0.00021065903995869193,-0.7162171337556482
0.0013500000000000029,388.34590125287576,1.0164602889039085,0.00021065190135987307,-0.7215620377388995
0.001360000000000003,388.35108205361433,1.0165085804609009,0.0002106447039686031,-0.7269069417221505
0.001370000000000003,388.35630579917915,1.0165572740243176,0.00021063744725521982,-0.7322518457054017
0.001380000000000003,388.3615611815644,1.0166062642224591,0.0002106301469358021,-0.7375967496886527
0.001390000000000003,388.3668591857816,1.0166556534932354,0.00021062278775825058,-0.7429416536719039
0.001400000000000003,388.3722001201986,1.0167054447541808,0.00021061536930265626,-0.748286557655155
0.001410000000000003,388.37757269606726,1.0167555328027225,0.00021060790725627374,-0.7536314616384061
0.001420000000000003,388.3829879539389,1.0168060206064526,0.00021060038629220875,-0.7589763656216573
0.001430000000000003,388.38844612303205,1.0168569103462408,0.00021059280610073288,-0.7643212696049083
0.0014400000000000031,388.3939359475068,1.0169080971156845,0.00021058518232128188,-0.7696661735881594
0.0014500000000000032,388.3994685103209,1.0169596842899595,0.00021057749957047737,-0.7750110775714105
0.0014600000000000032,388.4050439610403,1.0170116733083652,0.0002105697576494496,-0.7803559815546616
0.0014700000000000032,388.41065109036856,1.0170639596877338,0.0002105619721308265,-0.7857008855379128
0.0014800000000000032,388.41630098506596,1.0171166468511013,0.00021055412762842473,-0.7910457895211638
0.0014900000000000033,388.4219825712224,1.01716963157038,0.00021054623952542338,-0.796390693504415
0.0015000000000000033,388.42770683882947,1.0172230163745237,0.000210538292571643,-0.801735597487666
0.0015100000000000033,388.43347410604076,1.0172768042770746,0.00021053028633449708,-0.8070805014709173
0.0015200000000000033,388.4392730753272,1.017330889953262,0.00021052223650545914,-0.8124254054541684
0.0015300000000000034,388.445114788298,1.0173853764263638,0.00021051412776519615,-0.8177703094374194
0.0015400000000000034,388.4509994838225,1.0174402659716606,0.00021050595979145098,-0.8231152134206706
0.0015500000000000034,388.4569158955985,1.0174954535441858,0.00021049774823003677,-0.8284601174039216
0.0015600000000000034,388.46287510930864,1.0175510425912768,0.0002104894777030599,-0.8338050213871727
0.0015700000000000035,388.46887728416766,1.01760703464646,0.00021048114799904506,-0.8391499253704239
0.0015800000000000035,388.4749111987802,1.017663325071886,0.00021047277469915087,-0.8444948293536749
0.0015900000000000035,388.4809879476188,1.0177200174103023,0.00021046434241591663,-0.8498397333369262
0.0016000000000000035,388.4870964529857,1.0177770083565127,0.00021045586652948607,-0.8551846373201771
0.0016100000000000036,388.49324770463915,1.017834400485199,0.00021044733179947906,-0.8605295413034284
0.0016200000000000036,388.4994420303841,1.0178921969048094,0.00021043873778086306,-0.8658744452866793
0.0016300000000000036,388.5056681235758,1.01795029216205,0.00021043010016909123,-0.8712193492699306
0.0016400000000000037,388.5119370272181,1.018008789342035,0.00021042140365262735,-0.8765642532531817
0.0016500000000000037,388.518248989823,1.0180676908147226,0.0002104126478966943,-0.8819091572364327
0.0016600000000000037,388.52459273432726,1.018126891390359,0.00021040384855323832,-0.8872540612196839
0.0016700000000000037,388.53097934942934,1.01818649459453,0.00021039499025008623,-0.8925989652029349
0.0016800000000000038,388.5374090040212,1.0182465020553095,0.0002103860727631658,-0.8979438691861861
0.0016900000000000038,388.54387046427337,1.0183068089738412,0.00021037711168192207,-0.903288773169437
0.0017000000000000038,388.5503748326531,1.0183675190183483,0.00021036809161793386,-0.9086336771526883
0.0017100000000000038,388.5569110274067,1.0184285288009327,0.00021035902794799545,-0.9139785811359393
0.0017200000000000039,388.5634900383644,1.0184899409480446,0.00021034990544175895,-0.9193234851191905
0.0017300000000000039,388.57011220299916,1.0185517586634307,0.00021034072364175423,-0.9246683891024415
0.001740000000000004,388.57676620525984,1.0186138763590566,0.00021033149824717002,-0.9300132930856928
0.001750000000000004,388.5834630897956,1.0186763971878223,0.00021032221395450237,-0.9353581970689439
0.001760000000000004,388.590203114827,1.0187393236148399,0.0002103128704164629,-0.940703101052195
0.001770000000000004,388.59697499220556,1.0188025502992482,0.00021030348329088673,-0.9460480050354461
0.001780000000000004,388.603789813944,1.0188661808510158,0.00021029403721155646,-0.9513929090186972
0.001790000000000004,388.6106477586227,1.018930216993054,0.00021028453194181176,-0.9567378130019483
0.001800000000000004,388.61753757969154,1.0189945537592702,0.00021027498307913997,-0.9620827169851993
0.001810000000000004,388.6244703878069,1.019059294948926,0.0002102653752344763,-0.9674276209684504
0.0018200000000000041,388.63143509698176,1.0191243370860468,0.00021025572378095155,-0.9727725249517015
0.0018300000000000041,388.63844269737655,1.0191897828547896,0.0002102460134984826,-0.9781174289349528
0.0018400000000000042,388.64549353616076,1.0192556355546407,0.0002102362439171707,-0.983462332918204
0.0018500000000000042,388.65257628757104,1.0193217894565414,0.00021022643073969566,-0.9888072369014548
0.0018600000000000042,388.65970199822175,1.0193883477873267,0.00021021655867082127,-0.9941521408847059
0.0018700000000000043,388.6668709360052,1.0194553131074924,0.00021020662735075674,-0.9994970448679572
0.0018800000000000043,388.6740718014233,1.0195225799188743,0.00021019665244298186,-1.0048419488512084
0.0018900000000000043,388.6813156900829,1.0195902519219302,0.00021018661858747048,-1.0101868528344595
0.0019000000000000043,388.68860279027405,1.019658330934749,0.0002101765255349829,-1.0155317568177105
0.0019100000000000044,388.69592184240963,1.0197267118176565,0.0002101663888908045,-1.0208766608009616
0.0019200000000000044,388.703283965614,1.0197954985067694,0.00021015619326554397,-1.0262215647842128
0.0019300000000000044,388.71067806938186,1.0198645874323604,0.0002101459540283543,-1.0315664687674637
0.0019400000000000044,388.7181151445249,1.0199340813424154,0.00021013565596965004,-1.0369113727507149
